V1
0.044
0.039
0.034
0.039
0.039
0.044
0.044
0.049
0.044
0.044
0.034
0.034
0.029
0.039
0.044
0.044
0.039
0.049
0.054
0.054
0.049
0.054
0.073
0.117
0.19
0.244
0.307
0.346
0.371
0.42
0.493
0.551
0.595
0.595
0.508
0.371
0.156
-0.093
-0.332
-0.547
-0.712
-0.82
-0.874
-0.932
-1.035
-1.137
-1.225
-1.225
-1.161
-1.093
-1.025
-0.927
-0.834
-0.732
-0.63
-0.522
-0.42
-0.327
-0.244
-0.185
-0.137
-0.122
-0.093
-0.063
-0.039
-0.015
0.0
0.01
0.02
0.02
0.015
0.015
0.015
0.015
0.02
0.029
0.039
0.044
0.054
0.054
0.044
0.039
0.034
0.039
0.049
0.054
0.068
0.068
0.073
0.063
0.063
0.059
0.049
0.049
0.059
0.059
0.059
0.078
0.088
0.083
0.073
0.073
0.063
0.068
0.078
0.083
0.088
0.093
0.093
0.088
0.083
0.078
0.068
0.068
0.073
0.073
0.073
0.078
0.078
0.073
0.068
0.059
0.039
0.034
0.034
0.034
0.039
0.034
0.029
0.015
0.0
-0.005
-0.024
-0.034
-0.024
-0.02
-0.024
-0.029
-0.029
-0.029
-0.049
-0.059
-0.059
-0.068
-0.068
-0.063
-0.063
-0.059
-0.059
-0.054
-0.063
-0.068
-0.063
-0.063
-0.059
-0.039
-0.029
-0.024
-0.01
-0.01
-0.01
-0.01
-0.005
0.0
0.0
0.015
0.029
0.029
0.039
0.044
0.034
0.039
0.039
0.029
0.034
0.034
0.039
0.044
0.044
0.044
0.034
0.029
0.029
0.02
0.02
0.024
0.024
0.034
0.029
0.034
0.029
0.024
0.024
0.02
0.02
0.029
0.029
0.039
0.039
0.034
0.029
0.024
0.034
0.029
0.029
0.039
0.039
0.039
0.049
0.054
0.039
0.044
0.039
0.044
0.044
0.049
0.054
0.063
0.063
0.068
0.054
0.059
0.059
0.059
0.073
0.068
0.073
0.078
0.078
0.078
0.073
0.073
0.068
0.068
0.073
0.078
0.083
0.088
0.093
0.083
0.083
0.078
0.078
0.078
0.093
0.107
0.117
0.112
0.117
0.112
0.107
0.117
0.117
0.122
0.122
0.127
0.132
0.117
0.112
0.102
0.088
0.078
0.073
0.073
0.068
0.063
0.059
0.059
0.054
0.044
0.044
0.029
0.039
0.034
0.029
0.029
0.034
0.034
0.029
0.034
0.044
0.044
0.044
0.044
0.039
0.044
0.059
0.059
0.063
0.059
0.054
0.054
0.054
0.054
0.059
0.054
0.063
0.068
0.073
0.063
0.059
0.059
0.054
0.054
0.059
0.054
0.063
0.068
0.073
0.063
0.054
0.059
0.059
0.063
0.078
0.112
0.181
0.244
0.298
0.337
0.366
0.4
0.473
0.542
0.59
0.63
0.59
0.473
0.307
0.078
-0.156
-0.39
-0.586
-0.727
-0.8
-0.854
-0.937
-1.049
-1.147
-1.181
-1.137
-1.074
-1.01
-0.913
-0.825
-0.737
-0.625
-0.532
-0.429
-0.332
-0.244
-0.166
-0.117
-0.088
-0.068
-0.029
-0.005
0.01
0.029
0.039
0.049
0.059
0.059
0.054
0.059
0.059
0.059
0.073
0.078
0.078
0.088
0.083
0.083
0.078
0.078
0.083
0.083
0.093
0.098
0.102
0.112
0.112
0.098
0.093
0.098
0.093
0.093
0.098
0.107
0.107
0.112
0.117
0.112
0.107
0.107
0.098
0.107
0.107
0.112
0.117
0.122
0.117
0.107
0.102
0.102
0.102
0.093
0.098
0.102
0.098
0.098
0.093
0.083
0.068
0.059
0.049
0.039
0.039
0.039
0.039
0.034
0.02
0.015
0.005
0.0
-0.015
-0.02
-0.02
-0.024
-0.02
-0.02
-0.034
-0.039
-0.049
-0.054
-0.063
-0.063
-0.063
-0.063
-0.059
-0.054
-0.059
-0.054
-0.063
-0.054
-0.059
-0.049
-0.034
-0.029
-0.02
-0.01
-0.02
0.0
0.005
0.005
0.015
0.015
0.024
0.034
0.034
0.044
0.044
0.039
0.039
0.039
0.044
0.044
0.049
0.049
0.054
0.054
0.054
0.044
0.049
0.039
0.034
0.034
0.034
0.034
0.044
0.044
0.044
0.044
0.044
0.044
0.044
0.039
0.044
0.044
0.054
0.054
0.054
0.059
0.054
0.054
0.049
0.049
0.049
0.063
0.063
0.063
0.068
0.068
0.073
0.068
0.068
0.068
0.068
0.083
0.083
0.073
0.083
0.088
0.083
0.088
0.083
0.078
0.078
0.083
0.088
0.093
0.093
0.098
0.098
0.093
0.093
0.098
0.093
0.093
0.093
0.088
0.088
0.102
0.093
0.098
0.098
0.098
0.098
0.107
0.107
0.112
0.117
0.117
0.112
0.117
0.117
0.122
0.127
0.137
0.132
0.127
0.117
0.107
0.102
0.093
0.088
0.078
0.073
0.073
0.073
0.063
0.063
0.068
0.063
0.059
0.049
0.044
0.044
0.044
0.049
0.044
0.039
0.039
0.039
0.044
0.039
0.034
0.049
0.054
0.054
0.059
0.059
0.059
0.059
0.054
0.054
0.049
0.049
0.054
0.049
0.049
0.054
0.059
0.054
0.054
0.054
0.049
0.044
0.054
0.044
0.044
0.049
0.054
0.054
0.054
0.049
0.054
0.054
0.059
0.073
0.117
0.19
0.244
0.293
0.332
0.356
0.41
0.483
0.537
0.586
0.605
0.522
0.395
0.215
-0.024
-0.259
-0.473
-0.644
-0.766
-0.805
-0.869
-0.966
-1.078
-1.157
-1.161
-1.103
-1.039
-0.956
-0.874
-0.791
-0.698
-0.59
-0.498
-0.4
-0.307
-0.224
-0.166
-0.122
-0.098
-0.063
-0.044
-0.02
0.0
0.02
0.029
0.039
0.044
0.039
0.034
0.029
0.034
0.034
0.044
0.059
0.059
0.068
0.063
0.059
0.039
0.049
0.049
0.054
0.059
0.073
0.073
0.078
0.078
0.073
0.068
0.068
0.063
0.068
0.073
0.088
0.098
0.098
0.102
0.102
0.093
0.093
0.093
0.102
0.098
0.102
0.117
0.112
0.117
0.117
0.107
0.102
0.102
0.098
0.102
0.098
0.102
0.093
0.093
0.083
0.073
0.063
0.054
0.049
0.054
0.049
0.044
0.039
0.02
0.015
0.0
-0.01
-0.02
-0.015
-0.02
-0.02
-0.024
-0.024
-0.029
-0.044
-0.044
-0.059
-0.063
-0.059
-0.054
-0.049
-0.049
-0.039
-0.039
-0.044
-0.049
-0.044
-0.044
-0.034
-0.024
-0.015
0.0
0.01
0.01
0.015
0.015
0.015
0.015
0.024
0.044
0.049
0.059
0.073
0.073
0.073
0.068
0.068
0.068
0.068
0.073
0.083
0.078
0.088
0.088
0.078
0.078
0.073
0.063
0.063
0.063
0.068
0.068
0.078
0.078
0.073
0.068
0.073
0.063
0.068
0.073
0.073
0.078
0.078
0.078
0.073
0.073
0.073
0.068
0.073
0.078
0.088
0.093
0.088
0.093
0.088
0.078
0.083
0.083
0.083
0.088
0.098
0.098
0.102
0.098
0.098
0.098
0.098
0.098
0.098
0.093
0.098
0.102
0.102
0.098
0.093
0.083
0.083
0.083
0.083
0.093
0.098
0.102
0.102
0.098
0.093
0.083
0.078
0.073
0.073
0.088
0.088
0.098
0.112
0.117
0.112
0.112
0.102
0.102
0.098
0.107
0.117
0.122
0.127
0.132
0.117
0.112
0.093
0.088
0.068
0.063
0.063
0.063
0.063
0.059
0.049
0.044
0.024
0.02
0.02
0.015
0.02
0.029
0.029
0.024
0.029
0.02
0.02
0.024
0.029
0.029
0.034
0.034
0.039
0.034
0.039
0.034
0.029
0.029
0.034
0.034
0.034
0.039
0.039
0.034
0.039
0.029
0.015
0.02
0.024
0.024
0.034
0.039
0.044
0.044
0.039
0.039
0.034
0.029
0.039
0.044
0.054
0.068
0.078
0.112
0.171
0.229
0.283
0.322
0.356
0.395
0.459
0.522
0.571
0.615
0.571
0.459
0.312
0.083
-0.146
-0.361
-0.542
-0.688
-0.761
-0.815
-0.903
-1.005
-1.108
-1.157
-1.122
-1.059
-0.991
-0.898
-0.805
-0.717
-0.63
-0.532
-0.429
-0.337
-0.244
-0.166
-0.107
-0.083
-0.059
-0.024
-0.01
0.015
0.039
0.044
0.068
0.078
0.083
0.088
0.083
0.088
0.088
0.093
0.093
0.107
0.112
0.122
0.117
0.122
0.122
0.122
0.122
0.117
0.122
0.127
0.137
0.146
0.146
0.142
0.146
0.142
0.137
0.137
0.132
0.142
0.151
0.161
0.166
0.161
0.156
0.156
0.142
0.146
0.146
0.151
0.161
0.171
0.166
0.161
0.151
0.146
0.142
0.137
0.142
0.142
0.146
0.146
0.137
0.127
0.117
0.112
0.098
0.093
0.093
0.093
0.088
0.088
0.083
0.073
0.063
0.054
0.044
0.039
0.029
0.039
0.039
0.039
0.034
0.02
0.015
0.01
0.005
0.005
0.0
0.015
0.024
0.029
0.029
0.024
0.024
0.024
0.02
0.029
0.044
0.054
0.068
0.083
0.093
0.093
0.102
0.107
0.112
0.112
0.122
0.122
0.132
0.146
0.156
0.156
0.156
0.161
0.161
0.156
0.161
0.161
0.171
0.171
0.171
0.171
0.171
0.171
0.166
0.171
0.166
0.171
0.161
0.166
0.166
0.166
0.171
0.171
0.166
0.161
0.166
0.171
0.176
0.176
0.176
0.181
0.176
0.171
0.171
0.166
0.171
0.181
0.181
0.181
0.185
0.185
0.185
0.19
0.19
0.19
0.195
0.195
0.2
0.2
0.2
0.2
0.2
0.2
0.195
0.2
0.205
0.21
0.21
0.21
0.21
0.21
0.21
0.21
0.205
0.205
0.205
0.205
0.215
0.215
0.215
0.21
0.205
0.2
0.2
0.195
0.2
0.205
0.205
0.21
0.215
0.215
0.224
0.22
0.22
0.22
0.224
0.229
0.229
0.229
0.244
0.249
0.249
0.239
0.234
0.229
0.224
0.215
0.21
0.2
0.2
0.2
0.195
0.195
0.19
0.185
0.176
0.166
0.171
0.166
0.181
0.185
0.176
0.171
0.171
0.166
0.176
0.181
0.185
0.19
0.19
0.19
0.19
0.195
0.195
0.195
0.195
0.195
0.195
0.195
0.205
0.2
0.205
0.19
0.195
0.195
0.205
0.2
0.2
0.2
0.205
0.2
0.205
0.2
0.205
0.205
0.21
0.21
0.22
0.22
0.224
0.229
0.244
0.288
0.356
0.405
0.468
0.503
0.527
0.595
0.654
0.708
0.742
0.761
0.688
0.571
0.4
0.181
-0.054
-0.249
-0.395
-0.517
-0.586
-0.644
-0.747
-0.859
-0.932
-0.942
-0.883
-0.83
-0.761
-0.683
-0.605
-0.527
-0.444
-0.342
-0.249
-0.146
-0.063
0.0
0.039
0.068
0.098
0.117
0.137
0.161
0.171
0.181
0.19
0.19
0.195
0.195
0.181
0.171
0.176
0.171
0.176
0.19
0.195
0.19
0.19
0.181
0.171
0.166
0.156
0.161
0.156
0.161
0.171
0.176
0.171
0.161
0.151
0.137
0.132
0.127
0.127
0.142
0.142
0.142
0.137
0.122
0.107
0.102
0.102
0.098
0.098
0.093
0.098
0.093
0.078
0.068
0.068
0.059
0.049
0.044
0.039
0.034
0.034
0.029
0.01
0.0
-0.01
-0.029
-0.034
-0.049
-0.054
-0.054
-0.059
-0.073
-0.083
-0.098
-0.107
-0.117
-0.122
-0.122
-0.132
-0.127
-0.127
-0.142
-0.151
-0.161
-0.166
-0.181
-0.185
-0.181
-0.176
-0.176
-0.171
-0.171
-0.176
-0.181
-0.19
-0.2
-0.2
-0.195
-0.181
-0.176
-0.161
-0.146
-0.146
-0.151
-0.156
-0.156
-0.161
-0.146
-0.142
-0.132
-0.122
-0.117
-0.127
-0.132
-0.137
-0.146
-0.146
-0.146
-0.151
-0.146
-0.146
-0.151
-0.161
-0.176
-0.176
-0.19
-0.2
-0.2
-0.21
-0.2
-0.195
-0.195
-0.2
-0.21
-0.224
-0.224
-0.229
-0.224
-0.224
-0.22
-0.215
-0.22
-0.22
-0.224
-0.234
-0.239
-0.249
-0.234
-0.22
-0.21
-0.205
-0.2
-0.205
-0.195
-0.195
-0.2
-0.195
-0.181
-0.181
-0.171
-0.161
-0.151
-0.151
-0.151
-0.161
-0.156
-0.161
-0.156
-0.142
-0.132
-0.122
-0.107
-0.112
-0.117
-0.112
-0.102
-0.112
-0.102
-0.088
-0.083
-0.073
-0.063
-0.068
-0.068
-0.073
-0.063
-0.063
-0.054
-0.044
-0.034
-0.02
-0.01
0.0
0.015
0.024
0.02
0.029
0.039
0.059
0.078
0.088
0.107
0.107
0.112
0.112
0.112
0.112
0.122
0.137
0.142
0.151
0.151
0.151
0.151
0.156
0.161
0.156
0.161
0.166
0.176
0.19
0.171
0.161
0.161
0.161
0.161
0.161
0.166
0.166
0.176
0.176
0.176
0.166
0.166
0.166
0.156
0.156
0.151
0.156
0.166
0.161
0.161
0.151
0.146
0.142
0.137
0.127
0.122
0.132
0.132
0.122
0.122
0.127
0.117
0.107
0.098
0.098
0.088
0.093
0.107
0.107
0.132
0.181
0.234
0.278
0.332
0.342
0.371
0.434
0.483
0.532
0.576
0.571
0.488
0.346
0.156
-0.083
-0.307
-0.473
-0.625
-0.732
-0.781
-0.849
-0.947
-1.054
-1.142
-1.157
-1.108
-1.074
-1.005
-0.937
-0.869
-0.791
-0.722
-0.625
-0.537
-0.439
-0.351
-0.298
-0.259
-0.234
-0.205
-0.19
-0.166
-0.151
-0.132
-0.127
-0.107
-0.098
-0.098
-0.107
-0.112
-0.107
-0.112
-0.112
-0.107
-0.102
-0.098
-0.098
-0.102
-0.098
-0.107
-0.122
-0.122
-0.117
-0.112
-0.112
-0.107
-0.107
-0.107
-0.117
-0.117
-0.122
-0.117
-0.112
-0.117
-0.112
-0.112
-0.112
-0.122
-0.122
-0.127
-0.132
-0.137
-0.132
-0.137
-0.122
-0.127
-0.122
-0.132
-0.142
-0.146
-0.156
-0.156
-0.156
-0.151
-0.156
-0.156
-0.161
-0.161
-0.166
-0.181
-0.195
-0.2
-0.21
-0.21
-0.205
-0.21
-0.21
-0.229
-0.229
-0.244
-0.244
-0.244
-0.239
-0.254
-0.239
-0.244
-0.239
-0.239
-0.249
-0.259
-0.259
-0.273
-0.268
-0.264
-0.259
-0.254
-0.249
-0.234
-0.239
-0.239
-0.239
-0.239
-0.229
-0.224
-0.215
-0.205
-0.19
-0.185
-0.171
-0.176
-0.176
-0.171
-0.166
-0.156
-0.146
-0.137
-0.132
-0.117
-0.127
-0.122
-0.132
-0.132
-0.137
-0.127
-0.117
-0.112
-0.112
-0.117
-0.122
-0.127
-0.122
-0.132
-0.122
-0.127
-0.122
-0.117
-0.122
-0.107
-0.117
-0.122
-0.122
-0.127
-0.122
-0.117
-0.112
-0.112
-0.102
-0.102
-0.098
-0.098
-0.102
-0.107
-0.107
-0.098
-0.088
-0.083
-0.078
-0.078
-0.078
-0.083
-0.083
-0.073
-0.073
-0.063
-0.059
-0.054
-0.054
-0.049
-0.049
-0.059
-0.059
-0.063
-0.063
-0.049
-0.044
-0.039
-0.039
-0.034
-0.029
-0.034
-0.044
-0.039
-0.044
-0.034
-0.029
-0.024
-0.02
-0.015
-0.01
-0.015
-0.015
-0.01
-0.01
0.0
0.015
0.015
0.02
0.02
0.024
0.02
0.029
0.029
0.029
0.034
0.034
0.024
0.029
0.029
0.02
0.0
-0.01
-0.01
-0.01
-0.015
-0.005
-0.005
0.0
-0.005
-0.005
-0.01
-0.015
-0.01
-0.02
-0.02
-0.01
-0.005
-0.01
0.005
0.01
0.01
0.01
0.005
0.005
0.005
0.02
0.024
0.024
0.034
0.034
0.024
0.024
0.024
0.02
0.02
0.029
0.039
0.044
0.044
0.039
0.044
0.029
0.034
0.034
0.039
0.039
0.049
0.049
0.049
0.054
0.049
0.044
0.039
0.054
0.083
0.142
0.21
0.268
0.317
0.351
0.386
0.434
0.508
0.561
0.605
0.595
0.493
0.361
0.146
-0.093
-0.322
-0.517
-0.669
-0.756
-0.795
-0.869
-0.976
-1.083
-1.152
-1.152
-1.098
-1.03
-0.947
-0.859
-0.776
-0.683
-0.59
-0.483
-0.386
-0.293
-0.224
-0.161
-0.122
-0.093
-0.063
-0.034
-0.005
0.015
0.029
0.039
0.044
0.044
0.044
0.049
0.044
0.044
0.054
0.059
0.063
0.078
0.078
0.073
0.068
0.068
0.063
0.063
0.073
0.083
0.093
0.098
0.098
0.093
0.093
0.088
0.088
0.088
0.098
0.098
0.098
0.098
0.107
0.102
0.098
0.093
0.088
0.088
0.098
0.102
0.107
0.112
0.112
0.107
0.098
0.098
0.088
0.088
0.098
0.098
0.098
0.102
0.102
0.093
0.088
0.073
0.073
0.063
0.063
0.063
0.063
0.059
0.063
0.044
0.044
0.034
0.024
0.02
0.02
0.02
0.015
0.01
0.01
-0.005
-0.005
-0.01
-0.015
-0.024
-0.02
-0.02
-0.015
-0.015
-0.01
-0.01
-0.01
-0.01
-0.01
-0.01
0.005
0.01
0.015
0.02
0.029
0.034
0.024
0.024
0.034
0.029
0.049
0.059
0.068
0.078
0.088
0.073
0.073
0.068
0.073
0.068
0.078
0.078
0.083
0.083
0.078
0.073
0.073
0.059
0.059
0.063
0.068
0.068
0.068
0.073
0.073
0.068
0.068
0.059
0.054
0.054
0.054
0.059
0.068
0.068
0.063
0.068
0.063
0.054
0.059
0.059
0.068
0.078
0.078
0.078
0.078
0.083
0.078
0.063
0.073
0.078
0.083
0.093
0.088
0.093
0.088
0.093
0.098
0.088
0.093
0.098
0.093
0.098
0.107
0.102
0.102
0.102
0.093
0.088
0.093
0.093
0.088
0.093
0.098
0.098
0.088
0.088
0.083
0.088
0.088
0.088
0.093
0.107
0.112
0.122
0.117
0.117
0.112
0.107
0.107
0.112
0.117
0.127
0.132
0.137
0.127
0.112
0.098
0.088
0.073
0.073
0.073
0.073
0.063
0.063
0.068
0.063
0.059
0.059
0.044
0.044
0.039
0.044
0.044
0.044
0.049
0.044
0.044
0.044
0.044
0.044
0.054
0.059
0.059
0.068
0.063
0.063
0.063
0.063
0.054
0.049
0.054
0.059
0.054
0.059
0.054
0.049
0.049
0.044
0.044
0.049
0.044
0.054
0.054
0.059
0.059
0.054
0.049
0.044
0.039
0.044
0.044
0.054
0.073
0.112
0.185
0.234
0.283
0.322
0.346
0.395
0.473
0.542
0.59
0.625
0.551
0.425
0.249
0.01
-0.229
-0.444
-0.615
-0.752
-0.82
-0.869
-0.976
-1.088
-1.176
-1.205
-1.161
-1.103
-1.025
-0.922
-0.839
-0.742
-0.644
-0.537
-0.449
-0.351
-0.264
-0.19
-0.146
-0.102
-0.073
-0.054
-0.029
-0.015
0.0
0.015
0.024
0.034
0.029
0.029
0.024
0.029
0.024
0.039
0.044
0.054
0.054
0.068
0.063
0.063
0.059
0.059
0.054
0.059
0.059
0.068
0.068
0.073
0.073
0.078
0.073
0.068
0.068
0.073
0.073
0.078
0.078
0.088
0.083
0.088
0.083
0.078
0.073
0.073
0.073
0.078
0.078
0.078
0.078
0.078
0.073
0.073
0.068
0.078
0.073
0.068
0.068
0.063
0.063
0.063
0.049
0.039
0.039
0.039
0.034
0.029
0.02
0.015
0.01
0.005
-0.005
-0.015
-0.024
-0.024
-0.024
-0.02
-0.024
-0.029
-0.039
-0.039
-0.044
-0.054
-0.054
-0.059
-0.054
-0.054
-0.049
-0.044
-0.044
-0.039
-0.049
-0.049
-0.039
-0.044
-0.034
-0.024
-0.015
-0.01
0.0
0.005
0.005
0.01
0.015
0.024
0.024
0.034
0.049
0.049
0.049
0.049
0.049
0.049
0.049
0.044
0.049
0.054
0.054
0.054
0.054
0.054
0.049
0.039
0.054
0.044
0.044
0.044
0.044
0.044
0.049
0.044
0.039
0.039
0.039
0.044
0.044
0.049
0.049
0.044
0.049
0.054
0.049
0.049
0.054
0.054
0.054
0.063
0.068
0.059
0.068
0.063
0.059
0.063
0.068
0.068
0.073
0.083
0.088
0.083
0.083
0.088
0.073
0.078
0.078
0.078
0.078
0.083
0.083
0.083
0.083
0.078
0.083
0.078
0.078
0.073
0.073
0.083
0.078
0.083
0.083
0.078
0.073
0.073
0.068
0.073
0.078
0.088
0.093
0.102
0.102
0.102
0.102
0.102
0.102
0.107
0.112
0.122
0.112
0.107
0.107
0.098
0.088
0.078
0.068
0.063
0.068
0.059
0.059
0.059
0.054
0.054
0.049
0.039
0.034
0.039
0.039
0.029
0.029
0.029
0.029
0.034
0.039
0.044
0.054
0.049
0.054
0.059
0.054
0.054
0.059
0.049
0.054
0.054
0.054
0.054
0.049
0.044
0.049
0.044
0.054
0.044
0.044
0.044
0.039
0.034
0.039
0.044
0.044
0.049
0.039
0.044
0.044
0.044
0.039
0.039
0.044
0.059
0.093
0.161
0.215
0.273
0.322
0.342
0.381
0.444
0.508
0.556
0.6
0.556
0.449
0.288
0.073
-0.161
-0.371
-0.542
-0.688
-0.766
-0.82
-0.903
-1.005
-1.103
-1.147
-1.113
-1.059
-0.996
-0.903
-0.825
-0.747
-0.649
-0.561
-0.464
-0.366
-0.283
-0.205
-0.156
-0.112
-0.088
-0.068
-0.049
-0.029
-0.015
0.0
0.01
0.029
0.024
0.029
0.029
0.029
0.024
0.029
0.034
0.044
0.044
0.049
0.049
0.044
0.049
0.054
0.049
0.054
0.059
0.063
0.068
0.063
0.063
0.063
0.063
0.059
0.063
0.068
0.068
0.068
0.068
0.063
0.063
0.068
0.063
0.063
0.068
0.068
0.073
0.073
0.073
0.073
0.068
0.059
0.054
0.049
0.049
0.049
0.049
0.049
0.049
0.044
0.039
0.029
0.02
0.015
0.01
0.005
0.005
0.01
0.01
-0.005
-0.005
-0.015
-0.02
-0.034
-0.039
-0.039
-0.034
-0.044
-0.039
-0.039
-0.044
-0.049
-0.054
-0.059
-0.068
-0.068
-0.063
-0.063
-0.054
-0.054
-0.054
-0.049
-0.049
-0.054
-0.054
-0.049
-0.039
-0.034
-0.029
-0.02
-0.015
-0.01
-0.005
0.0
0.005
0.015
0.024
0.029
0.039
0.039
0.044
0.044
0.054
0.054
0.049
0.054
0.063
0.063
0.068
0.063
0.054
0.049
0.049
0.049
0.049
0.049
0.054
0.054
0.059
0.054
0.049
0.049
0.044
0.029
0.039
0.044
0.049
0.059
0.059
0.059
0.063
0.063
0.059
0.054
0.059
0.059
0.063
0.068
0.073
0.073
0.073
0.068
0.068
0.063
0.068
0.078
0.083
0.083
0.088
0.088
0.088
0.083
0.083
0.078
0.083
0.078
0.083
0.083
0.088
0.083
0.088
0.083
0.083
0.083
0.083
0.088
0.088
0.083
0.083
0.083
0.083
0.078
0.078
0.078
0.083
0.088
0.098
0.098
0.102
0.107
0.102
0.102
0.098
0.107
0.102
0.112
0.117
0.127
0.122
0.107
0.098
0.093
0.083
0.073
0.073
0.073
0.068
0.068
0.068
0.063
0.059
0.059
0.049
0.044
0.039
0.044
0.044
0.044
0.044
0.049
0.044
0.039
0.039
0.039
0.044
0.044
0.044
0.054
0.044
0.059
0.054
0.059
0.049
0.044
0.044
0.044
0.044
0.044
0.044
0.049
0.049
0.049
0.039
0.049
0.049
0.049
0.044
0.049
0.049
0.054
0.054
0.049
0.044
0.044
0.044
0.049
0.063
0.083
0.142
0.205
0.254
0.307
0.332
0.361
0.429
0.478
0.542
0.581
0.59
0.493
0.371
0.176
-0.054
-0.278
-0.449
-0.605
-0.712
-0.761
-0.834
-0.927
-1.03
-1.103
-1.098
-1.049
-1.0
-0.913
-0.834
-0.756
-0.673
-0.595
-0.498
-0.405
-0.317
-0.224
-0.176
-0.132
-0.102
-0.078
-0.054
-0.029
-0.015
0.0
0.01
0.024
0.02
0.015
0.024
0.029
0.029
0.029
0.039
0.039
0.044
0.049
0.054
0.044
0.034
0.039
0.034
0.044
0.054
0.049
0.054
0.059
0.059
0.049
0.044
0.044
0.044
0.044
0.054
0.049
0.054
0.063
0.049
0.039
0.034
0.039
0.034
0.039
0.044
0.049
0.049
0.054
0.054
0.044
0.039
0.034
0.029
0.024
0.029
0.029
0.029
0.024
0.029
0.02
0.015
0.01
0.005
0.005
0.0
-0.01
-0.01
-0.02
-0.034
-0.039
-0.044
-0.039
-0.054
-0.063
-0.054
-0.059
-0.054
-0.059
-0.073
-0.078
-0.078
-0.083
-0.083
-0.088
-0.078
-0.083
-0.083
-0.093
-0.098
-0.098
-0.093
-0.083
-0.073
-0.068
-0.054
-0.044
-0.034
-0.029
-0.024
-0.029
-0.024
-0.02
-0.015
-0.005
0.005
0.015
0.024
0.024
0.029
0.02
0.02
0.02
0.02
0.024
0.034
0.044
0.044
0.039
0.034
0.024
0.029
0.029
0.029
0.024
0.024
0.024
0.029
0.024
0.02
0.024
0.024
0.024
0.024
0.029
0.034
0.029
0.034
0.044
0.039
0.044
0.044
0.044
0.039
0.049
0.044
0.044
0.044
0.049
0.049
0.054
0.054
0.059
0.059
0.059
0.063
0.063
0.063
0.063
0.063
0.073
0.068
0.068
0.063
0.063
0.063
0.073
0.068
0.073
0.068
0.063
0.063
0.059
0.054
0.059
0.059
0.059
0.063
0.068
0.063
0.078
0.073
0.078
0.083
0.093
0.098
0.098
0.098
0.102
0.107
0.107
0.112
0.107
0.117
0.122
0.112
0.107
0.102
0.098
0.083
0.078
0.063
0.059
0.063
0.063
0.063
0.059
0.059
0.059
0.054
0.044
0.049
0.044
0.039
0.029
0.034
0.024
0.024
0.034
0.039
0.034
0.039
0.029
0.034
0.034
0.034
0.039
0.039
0.044
0.034
0.029
0.029
0.024
0.015
0.01
0.02
0.024
0.029
0.024
0.015
0.015
0.005
0.01
0.005
0.015
0.015
0.015
0.02
0.015
0.015
0.015
0.02
0.015
0.02
0.049
0.107
0.171
0.229
0.283
0.307
0.337
0.386
0.439
0.498
0.547
0.576
0.503
0.386
0.215
0.0
-0.234
-0.405
-0.551
-0.673
-0.727
-0.786
-0.874
-0.971
-1.035
-1.044
-1.01
-0.976
-0.922
-0.849
-0.795
-0.727
-0.639
-0.547
-0.444
-0.337
-0.254
-0.205
-0.156
-0.122
-0.098
-0.078
-0.044
-0.029
-0.01
0.01
0.02
0.02
0.024
0.024
0.024
0.024
0.024
0.024
0.034
0.049
0.049
0.049
0.044
0.034
0.034
0.039
0.049
0.054
0.059
0.059
0.063
0.063
0.063
0.054
0.054
0.054
0.054
0.059
0.059
0.063
0.068
0.059
0.063
0.054
0.054
0.044
0.049
0.054
0.063
0.068
0.068
0.068
0.059
0.049
0.044
0.044
0.044
0.044
0.049
0.044
0.049
0.039
0.029
0.02
0.015
0.005
0.005
0.01
0.005
0.005
0.01
0.005
-0.005
-0.02
-0.024
-0.029
-0.029
-0.02
-0.024
-0.024
-0.024
-0.029
-0.034
-0.044
-0.059
-0.063
-0.059
-0.049
-0.044
-0.034
-0.024
-0.029
-0.034
-0.029
-0.034
-0.034
-0.029
-0.02
-0.005
0.0
0.01
0.015
0.024
0.024
0.029
0.029
0.039
0.054
0.054
0.068
0.068
0.073
0.068
0.063
0.063
0.073
0.063
0.073
0.073
0.088
0.088
0.083
0.083
0.078
0.068
0.068
0.063
0.068
0.073
0.078
0.073
0.078
0.073
0.073
0.063
0.063
0.059
0.059
0.068
0.073
0.078
0.088
0.083
0.083
0.068
0.068
0.078
0.078
0.083
0.088
0.083
0.093
0.088
0.083
0.073
0.068
0.078
0.083
0.088
0.098
0.098
0.098
0.093
0.093
0.083
0.073
0.073
0.078
0.083
0.093
0.102
0.102
0.093
0.088
0.078
0.088
0.088
0.083
0.083
0.088
0.093
0.088
0.088
0.093
0.083
0.093
0.102
0.107
0.117
0.117
0.117
0.117
0.107
0.107
0.107
0.112
0.117
0.122
0.117
0.107
0.102
0.098
0.078
0.063
0.054
0.059
0.059
0.059
0.059
0.063
0.063
0.068
0.059
0.049
0.054
0.049
0.039
0.044
0.049
0.039
0.044
0.049
0.049
0.049
0.049
0.049
0.049
0.039
0.044
0.049
0.049
0.049
0.044
0.039
0.034
0.034
0.029
0.029
0.029
0.024
0.034
0.034
0.034
0.029
0.029
0.024
0.024
0.029
0.029
0.029
0.034
0.029
0.039
0.039
0.039
0.039
0.054
0.102
0.166
0.22
0.283
0.312
0.337
0.386
0.449
0.517
0.561
0.586
0.527
0.415
0.249
0.02
-0.224
-0.42
-0.59
-0.717
-0.756
-0.815
-0.903
-1.0
-1.103
-1.137
-1.118
-1.059
-1.0
-0.917
-0.83
-0.752
-0.664
-0.571
-0.468
-0.371
-0.283
-0.224
-0.171
-0.146
-0.122
-0.098
-0.073
-0.039
-0.024
-0.01
0.01
0.005
0.01
0.005
0.005
0.005
0.015
0.015
0.024
0.029
0.029
0.034
0.029
0.02
0.02
0.02
0.029
0.034
0.039
0.044
0.044
0.049
0.039
0.039
0.034
0.029
0.029
0.039
0.039
0.039
0.049
0.049
0.044
0.044
0.039
0.039
0.034
0.039
0.044
0.044
0.059
0.054
0.049
0.044
0.039
0.034
0.034
0.039
0.044
0.039
0.039
0.034
0.024
0.02
0.01
0.005
0.0
0.005
0.0
0.005
0.0
-0.005
-0.02
-0.024
-0.029
-0.039
-0.039
-0.034
-0.039
-0.039
-0.039
-0.049
-0.059
-0.059
-0.068
-0.059
-0.063
-0.054
-0.054
-0.059
-0.059
-0.054
-0.059
-0.059
-0.063
-0.063
-0.059
-0.044
-0.034
-0.029
-0.024
-0.02
-0.015
-0.015
-0.015
-0.015
0.0
0.005
0.02
0.02
0.024
0.029
0.029
0.029
0.024
0.02
0.024
0.034
0.034
0.039
0.039
0.044
0.029
0.024
0.02
0.024
0.02
0.02
0.024
0.029
0.034
0.034
0.024
0.024
0.02
0.024
0.02
0.029
0.029
0.034
0.039
0.039
0.029
0.029
0.034
0.029
0.039
0.044
0.049
0.049
0.049
0.054
0.049
0.044
0.044
0.054
0.054
0.059
0.068
0.068
0.073
0.068
0.068
0.059
0.059
0.059
0.063
0.068
0.073
0.078
0.088
0.078
0.078
0.073
0.068
0.063
0.059
0.063
0.083
0.083
0.093
0.088
0.083
0.083
0.078
0.088
0.093
0.098
0.102
0.107
0.107
0.122
0.122
0.122
0.127
0.132
0.122
0.112
0.107
0.102
0.093
0.083
0.073
0.073
0.068
0.068
0.059
0.068
0.063
0.063
0.063
0.054
0.049
0.044
0.039
0.039
0.034
0.044
0.044
0.049
0.059
0.059
0.054
0.059
0.054
0.059
0.063
0.068
0.078
0.083
0.078
0.068
0.068
0.068
0.068
0.063
0.059
0.063
0.063
0.073
0.068
0.068
0.054
0.059
0.063
0.059
0.059
0.063
0.063
0.073
0.073
0.063
0.068
0.063
0.063
0.078
0.127
0.19
0.249
0.307
0.356
0.376
0.429
0.508
0.561
0.605
0.625
0.547
0.41
0.215
-0.015
-0.254
-0.478
-0.659
-0.786
-0.849
-0.908
-1.015
-1.122
-1.2
-1.205
-1.157
-1.083
-1.005
-0.913
-0.815
-0.712
-0.61
-0.512
-0.405
-0.307
-0.229
-0.161
-0.112
-0.088
-0.059
-0.044
-0.015
0.01
0.024
0.044
0.044
0.054
0.049
0.039
0.044
0.044
0.044
0.059
0.068
0.078
0.083
0.073
0.073
0.063
0.054
0.059
0.059
0.063
0.078
0.083
0.088
0.088
0.088
0.078
0.073
0.073
0.078
0.093
0.102
0.107
0.107
0.107
0.098
0.093
0.088
0.083
0.083
0.093
0.107
0.107
0.112
0.112
0.102
0.093
0.088
0.078
0.083
0.088
0.098
0.102
0.098
0.102
0.093
0.078
0.063
0.063
0.054
0.059
0.063
0.054
0.059
0.049
0.039
0.024
0.015
0.01
0.005
0.01
0.015
0.0
0.005
0.0
-0.01
-0.015
-0.02
-0.024
-0.029
-0.024
-0.015
-0.024
-0.02
-0.02
-0.02
-0.029
-0.024
-0.024
-0.015
-0.01
0.0
0.005
0.01
0.015
0.024
0.01
0.015
0.024
0.029
0.044
0.049
0.059
0.073
0.073
0.068
0.063
0.063
0.063
0.063
0.073
0.083
0.088
0.083
0.078
0.073
0.063
0.059
0.054
0.059
0.054
0.063
0.063
0.059
0.059
0.054
0.049
0.044
0.044
0.044
0.049
0.049
0.063
0.063
0.073
0.059
0.059
0.054
0.063
0.063
0.063
0.073
0.078
0.078
0.078
0.083
0.073
0.068
0.078
0.078
0.083
0.093
0.088
0.093
0.098
0.088
0.088
0.083
0.088
0.083
0.088
0.088
0.093
0.093
0.098
0.093
0.093
0.088
0.088
0.088
0.078
0.093
0.098
0.093
0.088
0.088
0.093
0.083
0.088
0.098
0.102
0.107
0.122
0.112
0.112
0.112
0.112
0.107
0.117
0.122
0.122
0.127
0.127
0.112
0.102
0.098
0.078
0.063
0.063
0.063
0.063
0.059
0.068
0.068
0.063
0.054
0.044
0.044
0.049
0.049
0.039
0.044
0.049
0.044
0.044
0.044
0.034
0.039
0.044
0.044
0.049
0.054
0.059
0.054
0.049
0.054
0.044
0.039
0.049
0.049
0.049
0.054
0.054
0.059
0.049
0.054
0.049
0.039
0.034
0.034
0.039
0.044
0.049
0.044
0.044
0.044
0.044
0.034
0.044
0.044
0.059
0.098
0.166
0.22
0.273
0.317
0.332
0.381
0.439
0.503
0.556
0.605
0.571
0.449
0.307
0.088
-0.146
-0.366
-0.542
-0.693
-0.766
-0.815
-0.903
-1.0
-1.093
-1.137
-1.113
-1.054
-1.0
-0.913
-0.83
-0.742
-0.649
-0.556
-0.454
-0.366
-0.273
-0.205
-0.156
-0.122
-0.093
-0.068
-0.044
-0.02
-0.005
0.01
0.029
0.029
0.029
0.024
0.02
0.029
0.034
0.039
0.044
0.054
0.049
0.054
0.049
0.049
0.044
0.049
0.049
0.049
0.054
0.063
0.054
0.063
0.063
0.059
0.059
0.059
0.059
0.063
0.073
0.073
0.073
0.068
0.063
0.063
0.063
0.059
0.059
0.063
0.068
0.068
0.068
0.068
0.063
0.059
0.059
0.059
0.054
0.049
0.059
0.054
0.049
0.049
0.039
0.034
0.024
0.02
0.02
0.015
0.015
0.01
0.005
0.0
-0.005
-0.02
-0.029
-0.039
-0.039
-0.039
-0.039
-0.044
-0.039
-0.039
-0.049
-0.059
-0.059
-0.063
-0.063
-0.063
-0.068
-0.068
-0.059
-0.059
-0.059
-0.063
-0.063
-0.063
-0.059
-0.054
-0.044
-0.039
-0.024
-0.02
-0.024
-0.02
-0.01
-0.005
0.0
0.005
0.015
0.015
0.024
0.029
0.039
0.039
0.049
0.039
0.044
0.044
0.049
0.049
0.054
0.049
0.049
0.039
0.044
0.044
0.044
0.049
0.044
0.044
0.044
0.044
0.039
0.039
0.039
0.044
0.039
0.044
0.049
0.049
0.049
0.044
0.044
0.044
0.039
0.044
0.049
0.049
0.054
0.059
0.059
0.059
0.054
0.059
0.063
0.059
0.054
0.063
0.068
0.068
0.073
0.073
0.068
0.063
0.073
0.068
0.068
0.068
0.068
0.068
0.073
0.073
0.073
0.068
0.068
0.063
0.063
0.068
0.073
0.068
0.068
0.068
0.068
0.068
0.073
0.073
0.078
0.083
0.093
0.093
0.098
0.098
0.098
0.102
0.102
0.102
0.102
0.102
0.102
0.093
0.083
0.073
0.068
0.059
0.063
0.063
0.054
0.054
0.044
0.044
0.034
0.034
0.029
0.029
0.029
0.029
0.029
0.029
0.029
0.029
0.029
0.024
0.024
0.024
0.024
0.024
0.029
0.034
0.039
0.034
0.039
0.044
0.039
0.034
0.029
0.02
0.024
0.029
0.034
0.039
0.034
0.034
0.029
0.029
0.02
0.02
0.02
0.024
0.02
0.024
0.024
0.029
0.029
0.029
0.024
0.034
0.044
0.083
0.151
0.215
0.273
0.312
0.332
0.376
0.439
0.493
0.547
0.571
0.537
0.434
0.288
0.088
-0.142
-0.351
-0.508
-0.649
-0.727
-0.771
-0.864
-0.961
-1.049
-1.093
-1.064
-1.02
-0.966
-0.883
-0.795
-0.727
-0.654
-0.556
-0.464
-0.371
-0.283
-0.22
-0.166
-0.127
-0.102
-0.078
-0.054
-0.034
-0.015
0.005
0.01
0.005
0.015
0.02
0.02
0.02
0.02
0.024
0.034
0.039
0.039
0.039
0.039
0.039
0.034
0.034
0.034
0.034
0.039
0.044
0.049
0.049
0.049
0.044
0.044
0.039
0.034
0.039
0.039
0.049
0.054
0.054
0.049
0.049
0.049
0.049
0.044
0.044
0.049
0.049
0.054
0.059
0.054
0.049
0.039
0.034
0.024
0.024
0.029
0.034
0.029
0.024
0.02
0.015
0.005
-0.005
-0.015
-0.02
-0.015
-0.02
-0.02
-0.024
-0.034
-0.044
-0.044
-0.054
-0.063
-0.059
-0.059
-0.059
-0.063
-0.068
-0.078
-0.083
-0.083
-0.088
-0.088
-0.088
-0.088
-0.088
-0.083
-0.083
-0.088
-0.083
-0.083
-0.083
-0.078
-0.073
-0.059
-0.054
-0.044
-0.039
-0.034
-0.029
-0.029
-0.024
-0.02
-0.01
-0.005
0.01
0.02
0.024
0.024
0.024
0.024
0.024
0.024
0.029
0.034
0.039
0.044
0.044
0.049
0.039
0.039
0.034
0.029
0.034
0.034
0.039
0.039
0.039
0.044
0.044
0.039
0.034
0.029
0.034
0.034
0.039
0.049
0.054
0.044
0.049
0.044
0.044
0.049
0.049
0.049
0.054
0.059
0.068
0.068
0.068
0.063
0.063
0.063
0.068
0.068
0.078
0.078
0.078
0.078
0.068
0.063
0.059
0.063
0.078
0.073
0.083
0.083
0.083
0.083
0.078
0.073
0.073
0.073
0.078
0.073
0.078
0.088
0.088
0.083
0.088
0.093
0.093
0.093
0.098
0.102
0.102
0.107
0.112
0.117
0.117
0.112
0.102
0.102
0.102
0.098
0.088
0.083
0.073
0.078
0.068
0.063
0.054
0.049
0.049
0.054
0.054
0.044
0.044
0.049
0.044
0.039
0.039
0.034
0.039
0.044
0.049
0.049
0.054
0.063
0.054
0.059
0.059
0.059
0.063
0.063
0.063
0.063
0.054
0.059
0.054
0.054
0.059
0.054
0.054
0.054
0.059
0.063
0.063
0.059
0.054
0.054
0.054
0.054
0.059
0.059
0.059
0.063
0.063
0.063
0.063
0.083
0.132
0.2
0.259
0.307
0.342
0.381
0.425
0.483
0.532
0.576
0.59
0.527
0.415
0.259
0.049
-0.176
-0.366
-0.517
-0.654
-0.712
-0.776
-0.869
-0.961
-1.039
-1.054
-1.01
-0.966
-0.903
-0.825
-0.756
-0.683
-0.61
-0.512
-0.41
-0.322
-0.234
-0.161
-0.117
-0.098
-0.068
-0.059
-0.034
-0.005
0.01
0.029
0.039
0.044
0.034
0.044
0.034
0.039
0.039
0.044
0.054
0.059
0.063
0.068
0.059
0.054
0.044
0.044
0.049
0.059
0.068
0.073
0.083
0.088
0.073
0.078
0.063
0.063
0.063
0.068
0.073
0.083
0.088
0.093
0.078
0.073
0.063
0.063
0.063
0.073
0.068
0.078
0.083
0.083
0.073
0.068
0.049
0.049
0.039
0.049
0.049
0.059
0.054
0.054
0.039
0.034
0.02
0.015
0.005
0.005
0.0
0.005
0.005
0.005
-0.015
-0.024
-0.034
-0.044
-0.049
-0.049
-0.054
-0.039
-0.044
-0.049
-0.054
-0.063
-0.068
-0.078
-0.073
-0.068
-0.068
-0.059
-0.059
-0.059
-0.063
-0.063
-0.068
-0.068
-0.063
-0.054
-0.044
-0.034
-0.024
-0.024
-0.015
-0.015
-0.01
-0.005
0.0
0.01
0.024
0.039
0.044
0.039
0.044
0.044
0.039
0.034
0.039
0.044
0.049
0.054
0.059
0.059
0.054
0.049
0.044
0.034
0.044
0.044
0.044
0.049
0.059
0.054
0.054
0.049
0.044
0.044
0.039
0.049
0.049
0.054
0.063
0.063
0.054
0.054
0.059
0.059
0.054
0.059
0.059
0.063
0.073
0.078
0.078
0.073
0.068
0.063
0.068
0.068
0.078
0.083
0.088
0.093
0.093
0.088
0.088
0.083
0.078
0.078
0.088
0.083
0.083
0.088
0.083
0.078
0.078
0.073
0.068
0.083
0.078
0.088
0.093
0.093
0.098
0.098
0.098
0.093
0.098
0.107
0.112
0.107
0.117
0.117
0.122
0.122
0.112
0.102
0.093
0.088
0.088
0.078
0.068
0.073
0.068
0.063
0.059
0.054
0.049
0.044
0.054
0.044
0.049
0.054
0.054
0.044
0.034
0.029
0.02
0.024
0.039
0.039
0.039
0.044
0.054
0.044
0.049
0.039
0.039
0.044
0.049
0.059
0.059
0.059
0.063
0.054
0.049
0.049
0.044
0.049
0.049
0.049
0.049
0.049
0.044
0.039
0.044
0.039
0.039
0.034
0.044
0.039
0.044
0.044
0.054
0.054
0.088
0.156
0.22
0.268
0.317
0.342
0.386
0.439
0.493
0.537
0.571
0.547
0.434
0.303
0.112
-0.107
-0.312
-0.473
-0.625
-0.712
-0.766
-0.849
-0.952
-1.035
-1.088
-1.059
-1.01
-0.956
-0.878
-0.81
-0.747
-0.664
-0.581
-0.483
-0.386
-0.283
-0.21
-0.161
-0.127
-0.107
-0.093
-0.073
-0.044
-0.02
-0.005
0.015
0.02
0.024
0.02
0.015
0.01
0.005
0.01
0.02
0.024
0.039
0.049
0.044
0.039
0.029
0.024
0.02
0.015
0.024
0.039
0.034
0.049
0.054
0.049
0.039
0.034
0.029
0.029
0.039
0.054
0.054
0.059
0.049
0.039
0.034
0.024
0.02
0.029
0.039
0.039
0.049
0.049
0.049
0.034
0.024
0.02
0.005
0.005
0.01
0.015
0.02
0.015
0.01
0.005
-0.015
-0.024
-0.029
-0.039
-0.034
-0.034
-0.029
-0.034
-0.039
-0.054
-0.073
-0.083
-0.088
-0.093
-0.088
-0.088
-0.078
-0.083
-0.088
-0.093
-0.102
-0.112
-0.122
-0.122
-0.117
-0.112
-0.102
-0.098
-0.098
-0.107
-0.107
-0.112
-0.112
-0.102
-0.093
-0.083
-0.073
-0.068
-0.059
-0.054
-0.059
-0.054
-0.044
-0.039
-0.029
-0.015
0.0
0.01
0.01
0.015
0.01
0.005
0.0
0.005
0.015
0.024
0.029
0.029
0.024
0.02
0.015
0.005
0.01
0.01
0.015
0.02
0.02
0.024
0.02
0.015
0.01
0.0
0.0
0.005
0.015
0.024
0.029
0.034
0.034
0.02
0.015
0.01
0.005
0.01
0.015
0.024
0.034
0.044
0.039
0.034
0.034
0.029
0.024
0.029
0.034
0.044
0.049
0.054
0.049
0.049
0.049
0.044
0.044
0.039
0.049
0.054
0.054
0.063
0.054
0.059
0.049
0.044
0.034
0.039
0.044
0.049
0.054
0.059
0.063
0.063
0.068
0.063
0.059
0.059
0.068
0.078
0.093
0.093
0.093
0.088
0.073
0.068
0.054
0.054
0.049
0.044
0.039
0.044
0.039
0.034
0.02
0.005
0.0
0.005
0.005
0.01
0.005
0.005
0.01
0.005
-0.005
-0.015
-0.015
-0.01
0.0
0.01
0.015
0.015
0.024
0.024
0.015
0.01
0.01
0.005
0.0
0.015
0.015
0.024
0.02
0.015
0.005
-0.005
-0.01
-0.01
0.0
0.005
0.005
0.005
0.005
0.0
0.0
